dt,x,y,position,velocity,acceleration,jerk,heading
0.020000,10.000085,1.410000,0.000199,0.019900,0.995025,49.751244,0.000010
0.020000,10.000769,1.410000,0.000883,0.034188,0.714386,-14.031941,0.000090
0.020000,10.002307,1.410000,0.002421,0.076919,2.136519,71.106624,0.000269
0.020000,10.004871,1.410001,0.004985,0.128183,2.563198,21.333981,0.000568
0.020000,10.008459,1.410004,0.008573,0.179424,2.562064,-0.056706,0.000986
0.020000,10.013072,1.410010,0.013186,0.230633,2.560472,-0.079577,0.001526
0.020000,10.018708,1.410020,0.018822,0.281802,2.558420,-0.102638,0.002186
0.020000,10.025366,1.410038,0.025480,0.332920,2.555901,-0.125939,0.002968
0.020000,10.033046,1.410064,0.033160,0.383978,2.552910,-0.149546,0.003873
0.020000,10.041745,1.410102,0.041859,0.434967,2.549439,-0.173538,0.004901
0.020000,10.051463,1.410155,0.051577,0.485876,2.545481,-0.197912,0.006054
0.020000,10.062196,1.410227,0.062311,0.536697,2.541025,-0.222781,0.007333
0.020000,10.073944,1.410321,0.074059,0.587418,2.536062,-0.248157,0.008740
0.020000,10.086704,1.410443,0.086820,0.638030,2.530578,-0.274232,0.010275
0.020000,10.100474,1.410596,0.100590,0.688521,2.524561,-0.300838,0.011941
0.020000,10.115250,1.410785,0.115368,0.738881,2.517995,-0.328274,0.013739
0.020000,10.131030,1.411018,0.131150,0.789098,2.510865,-0.356517,0.015672
0.020000,10.147811,1.411298,0.147933,0.839161,2.503154,-0.385559,0.017742
0.020000,10.165589,1.411633,0.165714,0.889058,2.494841,-0.415643,0.019951
0.020000,10.184361,1.412030,0.184490,0.938776,2.485907,-0.446692,0.022301
0.020000,10.204121,1.412495,0.204256,0.988303,2.476330,-0.478874,0.024796
0.020000,10.224867,1.413037,0.225008,1.037624,2.466085,-0.512242,0.027438
0.020000,10.246592,1.413663,0.246743,1.086727,2.455147,-0.546908,0.030230
0.020000,10.269293,1.414383,0.269455,1.135597,2.443488,-0.582915,0.033176
0.020000,10.292963,1.415206,0.293139,1.184219,2.431080,-0.620399,0.036279
0.020000,10.317597,1.416140,0.317790,1.232577,2.417891,-0.659451,0.039543
0.020000,10.343188,1.417196,0.343404,1.280654,2.403889,-0.700127,0.042972
0.020000,10.369730,1.418385,0.369972,1.328435,2.389036,-0.742623,0.046570
0.020000,10.397216,1.419718,0.397490,1.375901,2.373298,-0.786920,0.050341
0.020000,10.425637,1.421206,0.425951,1.423034,2.356633,-0.833262,0.054291
0.020000,10.454987,1.422862,0.455347,1.469814,2.339000,-0.881657,0.058424
0.020000,10.485256,1.424698,0.485672,1.516221,2.320355,-0.932244,0.062746
0.020000,10.516435,1.426727,0.516916,1.562234,2.300650,-0.985211,0.067262
0.020000,10.548513,1.428964,0.549073,1.607831,2.279840,-1.040536,0.071977
0.020000,10.581481,1.431422,0.582133,1.652988,2.257870,-1.098489,0.076899
0.020000,10.615328,1.434117,0.616086,1.697682,2.234689,-1.159033,0.082034
0.020000,10.650041,1.437065,0.650924,1.741887,2.210241,-1.222426,0.087389
0.020000,10.685607,1.440281,0.686636,1.785576,2.184468,-1.288650,0.092971
0.020000,10.722014,1.443782,0.723210,1.828722,2.157311,-1.357844,0.098788
0.020000,10.759246,1.447585,0.760636,1.871296,2.128708,-1.430132,0.104848
0.020000,10.797288,1.451710,0.798901,1.913268,2.098598,-1.505522,0.111159
0.020000,10.836125,1.456174,0.837993,1.954607,2.066916,-1.584068,0.117730
0.020000,10.875738,1.460996,0.877899,1.995279,2.033599,-1.665858,0.124572
0.020000,10.916109,1.466197,0.918604,2.035250,1.998583,-1.750799,0.131693
0.020000,10.957219,1.471797,0.960094,2.074486,1.961806,-1.838875,0.139105
0.020000,10.999047,1.477817,1.002353,2.112950,1.923205,-1.930014,0.146818
0.020000,11.041571,1.484279,1.045365,2.150605,1.882726,-2.023977,0.154844
0.020000,11.084768,1.491206,1.089113,2.187411,1.840313,-2.120664,0.163194
0.020000,11.128612,1.498620,1.133580,2.223330,1.795921,-2.219585,0.171882
0.020000,11.173077,1.506546,1.178746,2.258320,1.749512,-2.320472,0.180920
0.020000,11.218137,1.515006,1.224593,2.292341,1.701058,-2.422657,0.190322
0.020000,11.263761,1.524027,1.271100,2.325352,1.650548,-2.525503,0.200104
0.020000,11.309918,1.533632,1.318246,2.357312,1.597986,-2.628095,0.210278
0.020000,11.356576,1.543847,1.366010,2.388180,1.543398,-2.729414,0.220862
0.020000,11.403701,1.554700,1.414368,2.417916,1.486836,-2.828085,0.231870
0.020000,11.451257,1.566215,1.463298,2.446484,1.428385,-2.922555,0.243320
0.020000,11.499205,1.578420,1.512775,2.473847,1.368167,-3.010907,0.255229
0.020000,11.547506,1.591341,1.562774,2.499974,1.306348,-3.090956,0.267614
0.020000,11.596118,1.605005,1.613271,2.524837,1.243148,-3.159983,0.280493
0.020000,11.645000,1.619441,1.664239,2.548414,1.178849,-3.214993,0.293885
0.020000,11.694105,1.634674,1.715653,2.570690,1.113801,-3.252374,0.307807
0.020000,11.743388,1.650734,1.767486,2.591659,1.048438,-3.268131,0.322279
0.020000,11.792800,1.667645,1.819713,2.611325,0.983286,-3.257604,0.337319
0.020000,11.842294,1.685437,1.872307,2.629704,0.918971,-3.215759,0.352944
0.020000,11.891818,1.704135,1.925243,2.646829,0.856236,-3.136780,0.369174
0.020000,11.941322,1.723768,1.978498,2.662748,0.795944,-3.014597,0.386024
0.020000,11.990755,1.744361,2.032049,2.677530,0.739093,-2.842522,0.403512
0.020000,12.039942,1.765886,2.085740,2.684555,0.351276,-19.390845,0.421606
0.020000,12.088599,1.788252,2.139291,2.677571,-0.349230,-35.025313,0.440222
0.020000,12.136460,1.811354,2.192437,2.657256,-1.015744,-33.325690,0.459267
0.020000,12.183397,1.835133,2.245053,2.630803,-1.322657,-15.345650,0.478688
0.020000,12.229403,1.859586,2.297154,2.605069,-1.286686,1.798524,0.498474
0.020000,12.274478,1.884710,2.348758,2.580208,-1.243065,2.181066,0.518612
0.020000,12.318622,1.910504,2.399886,2.556377,-1.191551,2.575699,0.539088
0.020000,12.361838,1.936967,2.450560,2.533737,-1.131997,2.977696,0.559886
0.020000,12.404132,1.964100,2.500809,2.512449,-1.064363,3.381719,0.580985
0.020000,12.445512,1.991905,2.550663,2.492675,-0.988729,3.781705,0.602365
0.020000,12.485988,2.020384,2.600154,2.474569,-0.905306,4.171135,0.624002
0.020000,12.525573,2.049544,2.649320,2.458280,-0.814444,4.543090,0.645869
0.020000,12.564280,2.079392,2.698199,2.443947,-0.716634,4.890526,0.667940
0.020000,12.602126,2.109937,2.746833,2.431697,-0.612505,5.206418,0.690185
0.020000,12.639127,2.141188,2.795266,2.421641,-0.502824,5.484081,0.712572
0.020000,12.675300,2.173160,2.843543,2.413871,-0.388476,5.717367,0.735070
0.020000,12.710665,2.205865,2.891712,2.408462,-0.270458,5.900932,0.757644
0.020000,12.745238,2.239319,2.939822,2.405465,-0.149848,6.030458,0.780261
0.020000,12.779038,2.273539,2.987920,2.404909,-0.027792,6.102833,0.802886
0.020000,12.812081,2.308542,3.036056,2.406800,0.094534,6.116306,0.825483
0.020000,12.844384,2.344346,3.084278,2.411119,0.215945,6.070543,0.848020
0.020000,12.875961,2.380969,3.132635,2.417824,0.335278,5.966660,0.870462
0.020000,12.906825,2.418429,3.181172,2.426853,0.451422,5.807169,0.892775
0.020000,12.936988,2.456743,3.229934,2.438120,0.563339,5.595855,0.914929
0.020000,12.966460,2.495928,3.278964,2.451521,0.670091,5.337619,0.936892
0.020000,12.995247,2.535997,3.328303,2.466938,0.770857,5.038288,0.958637
0.020000,13.023358,2.576965,3.377988,2.484237,0.864943,4.704320,0.980137
0.020000,13.050795,2.618843,3.428053,2.503273,0.951796,4.342614,1.001366
0.020000,13.077562,2.661640,3.478531,2.523893,1.031001,3.960262,1.022303
0.020000,13.103660,2.705362,3.529450,2.545939,1.102285,3.564217,1.042927
0.020000,13.129089,2.750014,3.580835,2.569249,1.165510,3.161260,1.063221
0.020000,13.153847,2.795597,3.632708,2.593662,1.220663,2.757623,1.083169
0.020000,13.177932,2.842112,3.685089,2.619019,1.267844,2.359036,1.102756
0.020000,13.201342,2.889554,3.737992,2.645164,1.307253,1.970452,1.121973
0.020000,13.224072,2.937918,3.791431,2.671948,1.339177,1.596215,1.140810
0.020000,13.246120,2.987195,3.845415,2.699227,1.363972,1.239730,1.159260
0.020000,13.267482,3.037374,3.899953,2.726868,1.382048,0.903811,1.177319
0.020000,13.288152,3.088445,3.955048,2.754745,1.393856,0.590420,1.194981
0.020000,13.308129,3.140391,4.010703,2.782743,1.399875,0.300956,1.212247
0.020000,13.327409,3.193196,4.066918,2.810755,1.400597,0.036106,1.229115
0.020000,13.345989,3.246844,4.123691,2.838685,1.396520,-0.203890,1.245587
0.020000,13.363866,3.301314,4.181020,2.866448,1.388134,-0.419286,1.261665
0.020000,13.381039,3.356587,4.238900,2.893966,1.375920,-0.610672,1.277353
0.020000,13.397507,3.412641,4.297323,2.921173,1.360341,-0.778993,1.292656
0.020000,13.413270,3.469456,4.356283,2.948010,1.341834,-0.925343,1.307577
0.020000,13.428328,3.527007,4.415772,2.974426,1.320812,-1.051078,1.322124
0.020000,13.442681,3.585272,4.475779,3.000379,1.297662,-1.157532,1.336302
0.020000,13.456333,3.644229,4.536296,3.025834,1.272736,-1.246263,1.350120
0.020000,13.469285,3.703854,4.597311,3.050761,1.246362,-1.318697,1.363584
0.020000,13.481541,3.764123,4.658814,3.075138,1.218835,-1.376372,1.376702
0.020000,13.493105,3.825014,4.720793,3.098946,1.190422,-1.420648,1.389483
0.020000,13.503980,3.886503,4.783237,3.122174,1.161361,-1.453027,1.401934
0.020000,13.514172,3.948568,4.846133,3.144811,1.131866,-1.474756,1.414064
0.020000,13.523686,4.011186,4.909470,3.166853,1.102124,-1.487094,1.425882
0.020000,13.532529,4.074336,4.973236,3.188299,1.072300,-1.491199,1.437395
0.020000,13.540707,4.137996,5.037419,3.209150,1.042537,-1.488168,1.448612
0.020000,13.548227,4.202145,5.102007,3.229409,1.012960,-1.478868,1.459543
0.020000,13.555096,4.266762,5.166989,3.249083,0.983672,-1.464386,1.470194
0.020000,13.561321,4.331829,5.232352,3.268178,0.954766,-1.445317,1.480574
0.020000,13.566911,4.397325,5.298086,3.286704,0.926315,-1.422521,1.490691
0.020000,13.571873,4.463232,5.364180,3.304672,0.898383,-1.396622,1.500554
0.020000,13.576216,4.529532,5.430622,3.322093,0.871020,-1.368130,1.510169
0.020000,13.579948,4.596207,5.497401,3.338978,0.844267,-1.337660,1.519545
0.020000,13.583077,4.663241,5.564508,3.355341,0.818156,-1.305567,1.528689
0.020000,13.585614,4.730617,5.631932,3.371195,0.792709,-1.272323,1.537608
0.020000,13.587565,4.798320,5.699663,3.386554,0.767945,-1.238188,1.546310
0.020000,13.588941,4.866334,5.767692,3.401432,0.743875,-1.203547,1.554800
0.020000,13.589749,4.934646,5.836008,3.415842,0.720503,-1.168595,1.563086
0.020000,13.589999,5.003156,5.904518,3.425474,0.481616,-11.944322,1.571164
0.020000,13.589698,5.071725,5.973088,3.428518,0.152188,-16.471395,1.579270
0.020000,13.588837,5.140010,6.041379,3.414519,-0.699912,-42.605010,1.587574
0.020000,13.587408,5.207996,6.109380,3.400067,-0.722649,-1.136850,1.596084
0.020000,13.585402,5.275670,6.177083,3.385145,-0.746086,-1.171840,1.604805
0.020000,13.582811,5.343015,6.244478,3.369740,-0.770222,-1.206801,1.613745
0.020000,13.579626,5.410016,6.311554,3.353839,-0.795050,-1.241402,1.622910
0.020000,13.575837,5.476657,6.378303,3.337428,-0.820559,-1.275445,1.632308
0.020000,13.571437,5.542921,6.444713,3.320494,-0.846731,-1.308620,1.641946
0.020000,13.566417,5.608790,6.510773,3.303023,-0.873542,-1.340546,1.651832
0.020000,13.560768,5.674247,6.576473,3.285004,-0.900960,-1.370910,1.661974
0.020000,13.554483,5.739272,6.641802,3.266425,-0.928943,-1.399117,1.672379
0.020000,13.547554,5.803847,6.706747,3.247276,-0.957439,-1.424807,1.683056
0.020000,13.539974,5.867951,6.771298,3.227548,-0.986384,-1.447254,1.694012
0.020000,13.531734,5.931565,6.835443,3.207234,-1.015702,-1.465927,1.705257
0.020000,13.522829,5.994666,6.899170,3.186328,-1.045302,-1.479990,1.716798
0.020000,13.513252,6.057234,6.962466,3.164827,-1.075076,-1.488709,1.728644
0.020000,13.502996,6.119246,7.025321,3.142729,-1.104899,-1.491142,1.740804
0.020000,13.492057,6.180681,7.087721,3.120036,-1.134625,-1.486310,1.753285
0.020000,13.480430,6.241514,7.149657,3.096754,-1.164088,-1.473142,1.766097
0.020000,13.468109,6.301725,7.211114,3.072892,-1.193098,-1.450479,1.779247
0.020000,13.455092,6.361288,7.272084,3.048464,-1.221439,-1.417071,1.792744
0.020000,13.441375,6.420181,7.332553,3.023486,-1.248871,-1.371572,1.806595
0.020000,13.426956,6.478381,7.392513,2.997984,-1.275123,-1.312604,1.820807
0.020000,13.411832,6.535865,7.451953,2.971986,-1.299897,-1.238705,1.835389
0.020000,13.396004,6.592609,7.510863,2.945529,-1.322865,-1.148419,1.850346
0.020000,13.379470,6.648592,7.569236,2.918655,-1.343669,-1.040180,1.865683
0.020000,13.362231,6.703791,7.627065,2.891417,-1.361921,-0.912632,1.881407
0.020000,13.344289,6.758186,7.684342,2.863873,-1.377206,-0.764256,1.897522
0.020000,13.325644,6.811756,7.741064,2.836091,-1.389083,-0.593852,1.914031
0.020000,13.306299,6.864482,7.797227,2.808149,-1.397089,-0.400256,1.930936
0.020000,13.286257,6.916347,7.852830,2.780134,-1.400741,-0.182595,1.948239
0.020000,13.265522,6.967335,7.907873,2.752143,-1.399546,0.059719,1.965939
0.020000,13.244097,7.017431,7.962358,2.724283,-1.393009,0.326860,1.984033
0.020000,13.221985,7.066624,8.016292,2.696671,-1.380637,0.618608,2.002520
0.020000,13.199191,7.114902,8.069680,2.669431,-1.361954,0.934162,2.021392
0.020000,13.175718,7.162258,8.122534,2.642701,-1.336512,1.272089,2.040644
0.020000,13.151570,7.208686,8.174867,2.616623,-1.303905,1.630338,2.060266
0.020000,13.126750,7.254182,8.226694,2.591347,-1.263783,2.006101,2.080246
0.020000,13.101259,7.298748,8.278034,2.567030,-1.215868,2.395772,2.100572
0.020000,13.075099,7.342384,8.328911,2.543831,-1.159966,2.795087,2.121226
0.020000,13.048269,7.385094,8.379349,2.521911,-1.095988,3.198880,2.142191
0.020000,13.020769,7.426887,8.429378,2.501432,-1.023958,3.601490,2.163447
0.020000,12.992596,7.467771,8.479029,2.482551,-0.944028,3.996532,2.184970
0.020000,12.963745,7.507757,8.528337,2.465422,-0.856482,4.377275,2.206736
0.020000,12.934209,7.546860,8.577341,2.450187,-0.761749,4.736688,2.228719
0.020000,12.903982,7.585094,8.626081,2.436979,-0.660394,5.067713,2.250889
0.020000,12.873052,7.622475,8.674599,2.425916,-0.553124,5.363497,2.273215
0.020000,12.841408,7.659021,8.722941,2.417101,-0.440773,5.617587,2.295667
0.020000,12.809037,7.694750,8.771153,2.410615,-0.324287,5.824273,2.318211
0.020000,12.775924,7.729679,8.819284,2.406521,-0.204713,5.978727,2.340813
0.020000,12.742053,7.763827,8.867381,2.404858,-0.083167,6.077284,2.363438
0.020000,12.707406,7.797211,8.915494,2.405641,0.039184,6.117558,2.386052
0.020000,12.671967,7.829847,8.963671,2.408864,0.161156,6.098566,2.408621
0.020000,12.635717,7.861751,9.011961,2.414496,0.281571,6.020773,2.431110
0.020000,12.598638,7.892937,9.060410,2.422482,0.399292,5.886066,2.453485
0.020000,12.560713,7.923416,9.109065,2.432746,0.513246,5.697671,2.475715
0.020000,12.521925,7.953199,9.157969,2.445195,0.622446,5.460019,2.497768
0.020000,12.482258,7.982296,9.207164,2.459716,0.726017,5.178524,2.519616
0.020000,12.441698,8.010712,9.256687,2.476180,0.823205,4.859405,2.541229
0.020000,12.400234,8.038454,9.306576,2.494448,0.913392,4.509389,2.562584
0.020000,12.357854,8.065524,9.356864,2.514370,0.996103,4.135511,2.583656
0.020000,12.314552,8.091925,9.407579,2.535790,1.070999,3.744812,2.604424
0.020000,12.270321,8.117657,9.458750,2.558547,1.137882,3.344173,2.624870
0.020000,12.225160,8.142719,9.510400,2.582481,1.196685,2.940110,2.644976
0.020000,12.179066,8.167109,9.562549,2.607430,1.247456,2.538562,2.664728
0.020000,12.132044,8.190825,9.615213,2.633237,1.290354,2.144888,2.684114
0.020000,12.084096,8.213864,9.668408,2.659750,1.325627,1.763657,2.703124
0.020000,12.035232,8.236221,9.722145,2.686822,1.353602,1.398768,2.721750
0.020000,11.985459,8.257894,9.776431,2.714315,1.374667,1.053223,2.739986
0.020000,11.934791,8.278878,9.831273,2.742100,1.389256,0.729452,2.757829
0.020000,11.883239,8.299169,9.886674,2.770057,1.397836,0.429000,2.775274
0.020000,11.830821,8.318765,9.942636,2.798075,1.400895,0.152975,2.792322
0.020000,11.777552,8.337662,9.999157,2.826053,1.398929,-0.098305,2.808973
0.020000,11.723452,8.355858,10.056235,2.853902,1.392434,-0.324751,2.825230
0.020000,11.668540,8.373350,10.113866,2.881540,1.381895,-0.526931,2.841094
0.020000,11.612837,8.390137,10.172043,2.908896,1.367784,-0.705567,2.856570
0.020000,11.556364,8.406219,10.230762,2.935907,1.350550,-0.861702,2.871663
0.020000,11.499144,8.421596,10.290012,2.962519,1.330617,-0.996628,2.886379
0.020000,11.441199,8.436269,10.349786,2.988687,1.308385,-1.111600,2.900723
0.020000,11.382552,8.450238,10.410073,3.014371,1.284221,-1.208205,2.914704
0.020000,11.323227,8.463507,10.470864,3.039541,1.258465,-1.287805,2.928327
0.020000,11.263247,8.476078,10.532147,3.064169,1.231425,-1.352002,2.941601
0.020000,11.202635,8.487954,10.593912,3.088237,1.203382,-1.402149,2.954533
0.020000,11.141414,8.499140,10.656147,3.111728,1.174587,-1.439779,2.967133
0.020000,11.079607,8.509641,10.718839,3.134634,1.145264,-1.466141,2.979407
0.020000,11.017236,8.519462,10.781978,3.156946,1.115612,-1.482587,2.991365
0.020000,10.954324,8.528608,10.845551,3.178662,1.085806,-1.490299,3.003015
0.020000,10.890893,8.537086,10.909547,3.199782,1.055999,-1.490362,3.014365
0.020000,10.826963,8.544903,10.973953,3.220308,1.026323,-1.483784,3.025424
0.020000,10.762555,8.552065,11.038758,3.240246,0.996892,-1.471560,3.036201
0.020000,10.697689,8.558581,11.103950,3.259602,0.967803,-1.454438,3.046703
0.020000,10.632385,8.564458,11.169518,3.278385,0.939138,-1.433271,3.056938
0.020000,10.566662,8.569703,11.235450,3.296604,0.910963,-1.408718,3.066915
0.020000,10.500538,8.574325,11.301735,3.314271,0.883338,-1.381291,3.076642
0.020000,10.434031,8.578333,11.368363,3.331397,0.856303,-1.351704,3.086125
0.020000,10.367158,8.581734,11.435323,3.347995,0.829899,-1.320243,3.095373
0.020000,10.299934,8.584538,11.502605,3.364078,0.804149,-1.287506,3.104393
0.020000,10.232378,8.586753,11.570198,3.379660,0.779074,-1.253744,3.113192
0.020000,10.164502,8.588389,11.638093,3.394753,0.754688,-1.219270,3.121777
0.020000,10.096323,8.589453,11.706281,3.409373,0.730999,-1.184446,3.130155
0.020000,10.027854,8.589955,11.774751,3.423534,0.708010,-1.149444,3.138332
0.020000,9.959291,8.589903,11.843315,3.428181,0.232391,-23.780995,3.146371
0.020000,9.890875,8.589296,11.911733,3.420914,-0.363382,-29.788608,3.154585
0.020000,9.822752,8.588126,11.979867,3.406668,-0.712266,-17.444227,3.163001
0.020000,9.754935,8.586383,12.047706,3.391961,-0.735386,-1.155998,3.171626
0.020000,9.687439,8.584058,12.115241,3.376777,-0.759206,-1.190999,3.180466
0.020000,9.620281,8.581142,12.182463,3.361102,-0.783722,-1.225777,3.189528
0.020000,9.553474,8.577628,12.249362,3.344924,-0.808924,-1.260122,3.198819
0.020000,9.487038,8.573506,12.315926,3.328228,-0.834799,-1.293726,3.208348
0.020000,9.420987,8.568767,12.382146,3.311001,-0.861324,-1.326274,3.218121
0.020000,9.355341,8.563404,12.448011,3.293232,-0.888472,-1.357382,3.228146
0.020000,9.290118,8.557409,12.513509,3.274908,-0.916204,-1.386635,3.238431
0.020000,9.225337,8.550772,12.578630,3.256018,-0.944475,-1.413516,3.248983
0.020000,9.161017,8.543488,12.643361,3.236554,-0.973226,-1.437544,3.259812
0.020000,9.097179,8.535547,12.707691,3.216506,-1.002385,-1.457992,3.270925
0.020000,9.033843,8.526944,12.771608,3.195869,-1.031870,-1.474207,3.282331
0.020000,8.971031,8.517672,12.835101,3.174637,-1.061580,-1.485515,3.294038
0.020000,8.908765,8.507725,12.898157,3.152809,-1.091397,-1.490868,3.306055
0.020000,8.847066,8.497096,12.960765,3.130385,-1.121187,-1.489460,3.318389
0.020000,8.785957,8.485781,13.022912,3.107370,-1.150791,-1.480202,3.331051
0.020000,8.725462,8.473774,13.084588,3.083769,-1.180031,-1.462018,3.344046
0.020000,8.665602,8.461073,13.145779,3.059595,-1.208703,-1.433600,3.357385
0.020000,8.606403,8.447673,13.206477,3.034863,-1.236578,-1.393764,3.371075
0.020000,8.547886,8.433572,13.266669,3.009595,-1.263399,-1.341061,3.385123
0.020000,8.490075,8.418768,13.326345,2.983818,-1.288882,-1.274124,3.399536
0.020000,8.432993,8.403259,13.385496,2.957563,-1.312710,-1.191413,3.414322
0.020000,8.376663,8.387044,13.444114,2.930873,-1.334541,-1.091522,3.429487
0.020000,8.321106,8.370125,13.502190,2.903793,-1.353998,-0.972880,3.445035
0.020000,8.266345,8.352501,13.559717,2.876379,-1.370680,-0.834088,3.460973
0.020000,8.212399,8.334173,13.616691,2.848696,-1.384157,-0.673841,3.477303
0.020000,8.159288,8.315145,13.673107,2.820816,-1.393974,-0.490851,3.494028
0.020000,8.107031,8.295419,13.728964,2.792823,-1.399657,-0.284182,3.511151
0.020000,8.055644,8.274997,13.784260,2.764809,-1.400719,-0.053088,3.528671
0.020000,8.005143,8.253884,13.838998,2.736876,-1.396663,0.202816,3.546587
0.020000,7.955539,8.232083,13.893180,2.709136,-1.386993,0.483501,3.564897
0.020000,7.906846,8.209597,13.946814,2.681711,-1.371225,0.788383,3.583595
0.020000,7.859072,8.186431,13.999909,2.654733,-1.348897,1.116414,3.602676
0.020000,7.812223,8.162589,14.052476,2.628342,-1.319582,1.465757,3.622132
0.020000,7.766304,8.138072,14.104530,2.602684,-1.282902,1.833981,3.641952
0.020000,7.721317,8.112885,14.156088,2.577913,-1.238545,2.217861,3.662122
0.020000,7.677261,8.087028,14.207172,2.554187,-1.186277,2.613381,3.682630
0.020000,7.634132,8.060501,14.257805,2.531668,-1.125961,3.015821,3.703456
0.020000,7.591925,8.033305,14.308015,2.510517,-1.057566,3.419722,3.724583
0.020000,7.550631,8.005437,14.357833,2.490893,-0.981186,3.819009,3.745988
0.020000,7.510239,7.976894,14.407292,2.472952,-0.897045,4.207077,3.767648
0.020000,7.470738,7.947669,14.456429,2.456842,-0.805504,4.577031,3.789536
0.020000,7.432113,7.917756,14.505283,2.442701,-0.707069,4.921779,3.811625
0.020000,7.394348,7.887145,14.553896,2.430653,-0.602381,5.234352,3.833884
0.020000,7.357425,7.855826,14.602312,2.420809,-0.492220,5.508074,3.856283
0.020000,7.321329,7.823786,14.650577,2.413259,-0.377482,5.736885,3.878790
0.020000,7.286040,7.791011,14.698739,2.408076,-0.259172,5.915520,3.901369
0.020000,7.251540,7.757485,14.746845,2.405308,-0.138377,6.039763,3.923988
0.020000,7.217812,7.723192,14.794945,2.404983,-0.016244,6.106638,3.946612
0.020000,7.184840,7.688114,14.843087,2.407104,0.106046,6.114512,3.969205
0.020000,7.152606,7.652234,14.891320,2.411650,0.227310,6.063195,3.991735
0.020000,7.121097,7.615533,14.939691,2.418578,0.346389,5.953941,4.014165
0.020000,7.090299,7.577993,14.988248,2.427822,0.462177,5.789375,4.036465
0.020000,7.060202,7.539597,15.037034,2.439294,0.573645,5.573412,4.058602
0.020000,7.030795,7.500330,15.086092,2.452892,0.679866,5.311040,4.080546
0.020000,7.002072,7.460176,15.135461,2.468492,0.780029,5.008153,4.102269
0.020000,6.974025,7.419123,15.185181,2.485961,0.873454,4.671267,4.123744
0.020000,6.946651,7.377159,15.235284,2.505153,0.959600,4.307320,4.144947
0.020000,6.919947,7.334275,15.285802,2.525915,1.038068,3.923366,4.165855
0.020000,6.893912,7.290465,15.336764,2.548087,1.108596,3.526404,4.186449
0.020000,6.868547,7.245726,15.388194,2.571508,1.171058,3.123103,4.206711
0.020000,6.843852,7.200054,15.440114,2.596017,1.225452,2.719731,4.226625
0.020000,6.819830,7.153452,15.492543,2.621455,1.271890,2.321862,4.246178
0.020000,6.796485,7.105922,15.545497,2.647666,1.310580,1.934490,4.265359
0.020000,6.773818,7.057472,15.598987,2.674503,1.341815,1.561755,4.284160
0.020000,6.751835,7.008110,15.653023,2.701822,1.365957,1.207139,4.302574
0.020000,6.730539,6.957845,15.707613,2.729490,1.383422,0.873237,4.320595
0.020000,6.709933,6.906692,15.762761,2.757383,1.394664,0.562095,4.338220
0.020000,6.690022,6.854664,15.818468,2.785387,1.400162,0.274900,4.355448
0.020000,6.670808,6.801778,15.874736,2.813395,1.400410,0.012401,4.372279
0.020000,6.652295,6.748052,15.931563,2.841313,1.395905,-0.225259,4.388713
0.020000,6.634484,6.693505,15.988944,2.869056,1.387138,-0.438352,4.404755
0.020000,6.617377,6.638158,16.046875,2.896547,1.374587,-0.627519,4.420406
0.020000,6.600976,6.582031,16.105349,2.923722,1.358713,-0.793727,4.435672
0.020000,6.585279,6.525146,16.164359,2.950521,1.339952,-0.938062,4.450558
0.020000,6.570288,6.467526,16.223897,2.976895,1.318714,-1.061909,4.465070
0.020000,6.556001,6.409195,16.283953,3.002803,1.295380,-1.166669,4.479214
0.020000,6.542415,6.350174,16.344518,3.028209,1.270305,-1.253747,4.492998
0.020000,6.529529,6.290487,16.405579,3.053085,1.243810,-1.324754,4.506429
0.020000,6.517338,6.230158,16.467127,3.077409,1.216188,-1.381082,4.519515
0.020000,6.505840,6.169210,16.529151,3.101163,1.187704,-1.424219,4.532264
0.020000,6.495030,6.107666,16.591637,3.124335,1.158594,-1.455495,4.544685
0.020000,6.484902,6.045548,16.654576,3.146916,1.129068,-1.476297,4.556785
0.020000,6.475451,5.982878,16.717954,3.168902,1.099311,-1.487841,4.568573
0.020000,6.466671,5.919679,16.781760,3.190292,1.069488,-1.491178,4.580058
0.020000,6.458555,5.855973,16.845981,3.211087,1.039737,-1.487541,4.591248
0.020000,6.451097,5.791779,16.910607,3.231290,1.010182,-1.477732,4.602152
0.020000,6.444290,5.727118,16.975625,3.250909,0.980928,-1.462744,4.612777
0.020000,6.438125,5.662010,17.041024,3.269950,0.952061,-1.443339,4.623132
0.020000,6.432595,5.596474,17.106793,3.288423,0.923657,-1.420188,4.633225
0.020000,6.427691,5.530530,17.172920,3.306339,0.895776,-1.394041,4.643064
0.020000,6.423406,5.464194,17.239394,3.323708,0.868470,-1.365331,4.652657
0.020000,6.419731,5.397484,17.306205,3.340544,0.841776,-1.334693,4.662011
0.020000,6.416658,5.330417,17.373342,3.356858,0.815726,-1.302489,4.671133
0.020000,6.414177,5.263010,17.440795,3.372665,0.790344,-1.269109,4.680031
0.020000,6.412281,5.195277,17.508555,3.387978,0.765645,-1.234951,4.688712
0.020000,6.410959,5.127233,17.576611,3.402811,0.741640,-1.200250,4.697183
0.020000,6.410204,5.058894,17.644954,3.417178,0.718333,-1.165317,4.705450
0.020000,6.410005,4.990363,17.713485,3.426528,0.467545,-12.539413,4.713513
0.020000,6.410360,4.921820,17.782029,3.427216,0.034384,-21.658042,4.721637
0.020000,6.411274,4.853563,17.850293,3.413176,-0.702027,-36.820583,4.729961
0.020000,6.412756,4.785605,17.918266,3.398679,-0.724830,-1.140112,4.738490
0.020000,6.414817,4.717962,17.985941,3.383712,-0.748333,-1.175189,4.747232
0.020000,6.417464,4.650649,18.053306,3.368262,-0.772535,-1.210065,4.756192
0.020000,6.420706,4.583681,18.120352,3.352313,-0.797427,-1.244630,4.765379
0.020000,6.424552,4.517075,18.187069,3.335853,-0.823000,-1.278623,4.774800
0.020000,6.429010,4.450848,18.253447,3.318868,-0.849234,-1.311696,4.784461
0.020000,6.434089,4.385016,18.319474,3.301346,-0.876104,-1.343499,4.794371
0.020000,6.439797,4.319600,18.385139,3.283275,-0.903577,-1.373644,4.804537
0.020000,6.446143,4.254616,18.450432,3.264643,-0.931610,-1.401678,4.814967
0.020000,6.453133,4.190084,18.515341,3.245440,-0.960151,-1.427053,4.825670
0.020000,6.460775,4.126026,18.579854,3.225657,-0.989135,-1.449211,4.836653
0.020000,6.469077,4.062460,18.643960,3.205287,-1.018484,-1.467439,4.847926
0.020000,6.478046,3.999408,18.707646,3.184325,-1.048106,-1.481072,4.859495
0.020000,6.487687,3.936892,18.770901,3.162767,-1.077890,-1.489227,4.871371
0.020000,6.498006,3.874933,18.833714,3.140613,-1.107710,-1.490981,4.883560
0.020000,6.509010,3.813554,18.896071,3.117865,-1.137419,-1.485474,4.896073
0.020000,6.520703,3.752778,18.957961,3.094528,-1.166848,-1.471415,4.908916
0.020000,6.533089,3.692628,19.019374,3.070612,-1.195804,-1.447807,4.922098
0.020000,6.546172,3.633127,19.080296,3.046130,-1.224070,-1.413320,4.935628
0.020000,6.559955,3.574298,19.140718,3.021102,-1.251402,-1.366592,4.949513
0.020000,6.574441,3.516164,19.200629,2.995552,-1.277528,-1.306315,4.963760
0.020000,6.589631,3.458749,19.260020,2.969509,-1.302146,-1.230896,4.978376
0.020000,6.605526,3.402076,19.318880,2.943010,-1.324926,-1.138985,4.993369
0.020000,6.622126,3.346166,19.377202,2.916100,-1.345506,-1.029029,5.008743
0.020000,6.639432,3.291042,19.434978,2.888830,-1.363497,-0.899510,5.024504
0.020000,6.657441,3.236725,19.492204,2.861261,-1.378480,-0.749161,5.040656
0.020000,6.676152,3.183234,19.548873,2.833460,-1.390011,-0.576580,5.057202
0.020000,6.695562,3.130588,19.604983,2.805508,-1.397627,-0.380765,5.074145
0.020000,6.715669,3.078805,19.660533,2.777491,-1.400843,-0.160798,5.091485
0.020000,6.736470,3.027901,19.715523,2.749508,-1.399165,0.083863,5.109222
0.020000,6.757960,2.977889,19.769956,2.721666,-1.392098,0.353349,5.127353
0.020000,6.780136,2.928782,19.823838,2.694083,-1.379151,0.647379,5.145877
0.020000,6.802995,2.880591,19.877176,2.666886,-1.359849,0.965103,5.164785
0.020000,6.826531,2.833323,19.929980,2.640211,-1.333747,1.305068,5.184073
0.020000,6.850743,2.786982,19.982264,2.614202,-1.300446,1.665084,5.203729
0.020000,6.875627,2.741573,20.034044,2.589010,-1.259599,2.042334,5.223742
0.020000,6.901181,2.697096,20.085340,2.564791,-1.210937,2.433117,5.244099
0.020000,6.927404,2.653547,20.136174,2.541706,-1.154276,2.833060,5.264783
0.020000,6.954296,2.610924,20.186572,2.519915,-1.089535,3.237022,5.285777
0.020000,6.981860,2.569217,20.236564,2.499580,-1.016751,3.639183,5.307059
0.020000,7.010097,2.528419,20.286181,2.480858,-0.936088,4.033174,5.328606
0.020000,7.039012,2.488516,20.335459,2.463901,-0.847844,4.412203,5.350394
0.020000,7.068613,2.449496,20.384436,2.448852,-0.752459,4.769240,5.372396
0.020000,7.098906,2.411343,20.433153,2.435842,-0.650514,5.097233,5.394582
0.020000,7.129903,2.374041,20.481653,2.424987,-0.542728,5.389341,5.416921
0.020000,7.161615,2.337573,20.529980,2.416388,-0.429944,5.639198,5.439383
0.020000,7.194055,2.301921,20.578183,2.410126,-0.313121,5.841138,5.461934
0.020000,7.227239,2.267066,20.626308,2.406260,-0.193312,5.990462,5.484539
0.020000,7.261183,2.232991,20.674405,2.404827,-0.071640,6.083600,5.507165
0.020000,7.295903,2.199678,20.722522,2.405841,0.050726,6.118301,5.529777
0.020000,7.331418,2.167112,20.770707,2.409293,0.172601,6.093719,5.552339
0.020000,7.367745,2.135276,20.819010,2.415150,0.292810,6.010456,5.574819
0.020000,7.404903,2.104158,20.867477,2.423354,0.410220,5.870525,5.597182
0.020000,7.442909,2.073745,20.916154,2.433829,0.523766,5.677277,5.619396
0.020000,7.481780,2.044027,20.965084,2.446479,0.632471,5.435243,5.641431
0.020000,7.521530,2.014994,21.014307,2.461188,0.735469,5.149918,5.663258
0.020000,7.562175,1.986642,21.063864,2.477829,0.832021,4.827595,5.684848
0.020000,7.603725,1.958963,21.113789,2.496259,0.921522,4.475031,5.706177
0.020000,7.646192,1.931956,21.164116,2.516329,1.003507,4.099249,5.727221
0.020000,7.689581,1.905619,21.214873,2.537882,1.077653,3.707342,5.747960
0.020000,7.733900,1.879950,21.266088,2.560758,1.143775,3.306101,5.768374
0.020000,7.779149,1.854951,21.317784,2.584794,1.201816,2.902026,5.788447
0.020000,7.825330,1.830625,21.369981,2.609831,1.251836,2.501010,5.808166
0.020000,7.872441,1.806972,21.422695,2.635711,1.294003,2.108319,5.827517
0.020000,7.920452,1.784008,21.475916,2.661026,1.265777,-1.411274,5.846482
0.020000,7.969210,1.761801,21.529493,2.678857,0.891536,-18.712070,5.865000
0.020000,8.018445,1.740451,21.583157,2.683229,0.218586,-33.647497,5.882979
0.020000,8.067893,1.720040,21.636653,2.674759,-0.423506,-32.104589,5.900347
0.020000,8.117403,1.700584,21.689848,2.659769,-0.749469,-16.298132,5.917080
0.020000,8.166923,1.682057,21.742721,2.643628,-0.807040,-2.878556,5.933195
0.020000,8.216403,1.664432,21.795246,2.626271,-0.867856,-3.040792,5.948709
0.020000,8.265793,1.647682,21.847399,2.607652,-0.930944,-3.154405,5.963641
0.020000,8.315044,1.631779,21.899154,2.587743,-0.995464,-3.226009,5.978009
0.020000,8.364109,1.616697,21.950484,2.566529,-1.060696,-3.261591,5.991831
0.020000,8.412941,1.602407,22.001365,2.544009,-1.126033,-3.266843,6.005125
0.020000,8.461497,1.588884,22.051768,2.520189,-1.190967,-3.246723,6.017910
0.020000,8.509733,1.576098,22.101670,2.495088,-1.255082,-3.205766,6.030205
0.020000,8.557608,1.564024,22.151045,2.468727,-1.318040,-3.147890,6.042026
0.020000,8.605084,1.552635,22.199867,2.441135,-1.379572,-3.076593,6.053392
0.020000,8.652122,1.541904,22.248114,2.412346,-1.439469,-2.994835,6.064320
0.020000,8.698688,1.531804,22.295762,2.382395,-1.497572,-2.905161,6.074826
0.020000,8.744746,1.522310,22.342789,2.351319,-1.553768,-2.809793,6.084926
0.020000,8.790264,1.513396,22.389172,2.319160,-1.607978,-2.710531,6.094635
0.020000,8.835213,1.505037,22.434891,2.285957,-1.660156,-2.608897,6.103968
0.020000,8.879562,1.497208,22.479926,2.251751,-1.710279,-2.506156,6.112940
0.020000,8.923285,1.489887,22.524258,2.216584,-1.758348,-2.403418,6.121563
0.020000,8.966355,1.483048,22.567868,2.180496,-1.804376,-2.301400,6.129852
0.020000,9.008749,1.476670,22.610738,2.143529,-1.848394,-2.200893,6.137818
0.020000,9.050442,1.470730,22.652853,2.105720,-1.890440,-2.102301,6.145474
0.020000,9.091414,1.465205,22.694195,2.067109,-1.930564,-2.006194,6.152831
0.020000,9.131643,1.460076,22.734749,2.027732,-1.968817,-1.912667,6.159899
0.020000,9.171110,1.455322,22.774502,1.987627,-2.005260,-1.822143,6.166689
0.020000,9.209797,1.450923,22.813438,1.946828,-2.039952,-1.734618,6.173211
0.020000,9.247687,1.446860,22.851546,1.905369,-2.072958,-1.650302,6.179475
0.020000,9.284764,1.443114,22.888811,1.863282,-2.104340,-1.569094,6.185488
0.020000,9.321013,1.439667,22.925223,1.820599,-2.134163,-1.491168,6.191260
0.020000,9.356418,1.436502,22.960770,1.777349,-2.162490,-1.416317,6.196799
0.020000,9.390968,1.433603,22.995442,1.733561,-2.189384,-1.344692,6.202112
0.020000,9.424649,1.430953,23.029227,1.689263,-2.214903,-1.275975,6.207207
0.020000,9.457450,1.428537,23.062117,1.644481,-2.239110,-1.210357,6.212090
0.020000,9.489359,1.426339,23.094101,1.599240,-2.262060,-1.147486,6.216768
0.020000,9.520367,1.424347,23.125173,1.553564,-2.283808,-1.087411,6.221247
0.020000,9.550462,1.422545,23.155322,1.507475,-2.304408,-1.029994,6.225533
0.020000,9.579637,1.420921,23.184542,1.460997,-2.323910,-0.975092,6.229631
0.020000,9.607882,1.419463,23.212825,1.414150,-2.342362,-0.922610,6.233547
0.020000,9.635190,1.418158,23.240164,1.366954,-2.359811,-0.872419,6.237286
0.020000,9.661553,1.416994,23.266553,1.319428,-2.376299,-0.824406,6.240852
0.020000,9.686964,1.415961,23.291985,1.271590,-2.391869,-0.778498,6.244249
0.020000,9.711416,1.415048,23.316454,1.223459,-2.406559,-0.734497,6.247483
0.020000,9.734903,1.414245,23.339955,1.175051,-2.420406,-0.692379,6.250556
0.020000,9.757420,1.413543,23.362482,1.126382,-2.433447,-0.652024,6.253473
0.020000,9.778961,1.412933,23.384032,1.077468,-2.445711,-0.613233,6.256237
0.020000,9.799521,1.412405,23.404598,1.028323,-2.457233,-0.576065,6.258851
0.020000,9.819095,1.411953,23.424177,0.978963,-2.468039,-0.540311,6.261318
0.020000,9.837679,1.411568,23.442765,0.929399,-2.478156,-0.505876,6.263642
0.020000,9.855269,1.411244,23.460358,0.879647,-2.487612,-0.472770,6.265824
0.020000,9.871861,1.410973,23.476953,0.829719,-2.496427,-0.440769,6.267868
0.020000,9.887452,1.410749,23.492545,0.779626,-2.504625,-0.409922,6.269776
0.020000,9.902038,1.410566,23.507133,0.729382,-2.512226,-0.380049,6.271549
0.020000,9.915617,1.410419,23.520713,0.678997,-2.519249,-0.351133,6.273190
0.020000,9.928186,1.410303,23.533282,0.628482,-2.525710,-0.323068,6.274701
0.020000,9.939743,1.410213,23.544839,0.577850,-2.531627,-0.295801,6.276083
0.020000,9.950285,1.410145,23.555382,0.527110,-2.537012,-0.269263,6.277339
0.020000,9.959810,1.410095,23.564907,0.476272,-2.541879,-0.243359,6.278468
0.020000,9.968317,1.410059,23.573414,0.425347,-2.546240,-0.218054,6.279473
0.020000,9.975804,1.410034,23.580901,0.374345,-2.550106,-0.193310,6.280355
0.020000,9.982270,1.410018,23.587366,0.323275,-2.553486,-0.168970,6.281114
0.020000,9.987712,1.410009,23.592809,0.272148,-2.556387,-0.145087,6.281751
0.020000,9.992132,1.410004,23.597229,0.220971,-2.558818,-0.121542,6.282268
0.020000,9.995527,1.410001,23.600624,0.169756,-2.560783,-0.098259,6.282664
0.020000,9.997897,1.410000,23.602994,0.118510,-2.562289,-0.075280,6.282940
0.020000,9.999274,1.410000,23.604371,0.068856,-2.482701,3.979402,6.283101
0.020000,9.999861,1.410000,23.604958,0.029350,-1.975295,25.370310,6.283169
0.020000,10.000000,1.410000,23.605097,0.006934,-1.120776,42.725935,6.283185
0.020000,10.000000,1.410000,23.605097,0.000000,-0.346723,38.702656,6.283185
